id;Easting_31983;Northing_31983;Latitude_4326;Longitude_4326
1;418156.076;7445051.959;-23.101212874224927;-45.799200299099645
2;418124.772;7445017.694;-23.10152082319051;-45.79950778941554
3;418123.896;7445016.673;-23.101530001995627;-45.799516397457616
4;418111.99;7444999.686;-23.101682847301863;-45.7996335585755
5;418110.761;7444996.656;-23.10171015482446;-45.799645720836594
6;418110.703;7444994.854;-23.101726428425085;-45.79964638351985
7;418111.369;7444992.069;-23.101751616733775;-45.79964002946069
8;418112.611;7444990.297;-23.101767683664793;-45.79962799703194
9;418114.656;7444988.444;-23.101784521942065;-45.799608128248515
10;418123.327;7444985.547;-23.10181111781194;-45.799523617428406
11;418166.219;7444978.152;-23.10188003355165;-45.79910520478855
12;418255.027;7444966.635;-23.101988447853007;-45.798238676296066
13;418338.664;7444949.495;-23.10214739184021;-45.797422937124495
14;418419.305;7444923.68;-23.102384540550684;-45.796636911836124
15;418481.462;7444896.83;-23.10263012389534;-45.79603142222155
16;418506.303;7444878.506;-23.102796857658603;-45.795789842205544
17;418537.891;7444854.039;-23.103019409469116;-45.79548270842655
18;418571.084;7444820.905;-23.103320323944633;-45.795160362722655
19;418625.755;7444767.769;-23.103802960939092;-45.79462935913282
20;418662.786;7444703.313;-23.104386976927824;-45.79427119763561
21;418685.148;7444607.499;-23.105253511323642;-45.794057933626114
22;418694.407;7444537.087;-23.105889959392997;-45.79397126318924
23;418701.35;7444484.329;-23.106366834678756;-45.793906269385936
24;418722.229;7444447.304;-23.10670228674414;-45.79370436022867
25;418744.858;7444416.724;-23.106979610311857;-45.79348501991684
26;418773.739;7444392.493;-23.10719989337975;-45.79320429327634
27;418814.059;7444366.83;-23.10743367160996;-45.79281194369379
28;418859.02;7444352.281;-23.10756728971786;-45.792373685793976
29;418934.752;7444352.262;-23.10757117251432;-45.791634188499174
30;419003.96;7444382.901;-23.107297815431313;-45.7909567738012
31;419068.386;7444442.44;-23.10676318338486;-45.790324528542214
32;419093.223;7444581.682;-23.10550669947568;-45.79007464654151
33;419086.804;7444658.963;-23.104808347845953;-45.79013324110341
34;419061.046;7444758.798;-23.103905332436796;-45.790379477269155
35;419072.294;7444837.795;-23.103192344701046;-45.79026547213908
36;419141.528;7444918.356;-23.10246806330865;-45.78958519239458
37;419224.812;7444946.026;-23.102222200712625;-45.78877052190837
38;419293.609;7444930.336;-23.102367275606408;-45.78809959452377
39;419332.245;7444899.732;-23.102645588529022;-45.78772395286859
40;419364.482;7444856.172;-23.103040613616212;-45.78741147395952
41;419390.28;7444788.65;-23.10365176067495;-45.787163127547636
42;419387.388;7444732.96;-23.10415463820003;-45.78719429802823
43;419330.047;7444601.858;-23.105336019554773;-45.787761107824686
44;419276.77;7444485.057;-23.106388423335616;-45.78828749042035
45;419275.122;7444431.796;-23.106869421148406;-45.78830639076124
46;419296.035;7444406.077;-23.10710274702867;-45.78810353875823
47;419337.861;7444367.445;-23.107453728276447;-45.787697157934396
48;419454.576;7444266.747;-23.108368964080864;-45.786562771665366
49;419497.001;7444211.122;-23.108873459396225;-45.78615142753829
50;419509.192;7444152.184;-23.10940640800078;-45.78603548411414
51;419499.645;7444094.436;-23.109927550560293;-45.78613174577513
52;419436.612;7444022.425;-23.110574919968524;-45.786751044131435
53;419403.467;7443989.732;-23.11086860432591;-45.787076423306495
54;419382.142;7443947.913;-23.111245294128047;-45.78728686291629
55;419386.345;7443926.603;-23.11143798068298;-45.78724694318224
56;419402.317;7443906.771;-23.111617890535282;-45.78709202147206
57;419446.57;7443888.304;-23.111786847945023;-45.78666086376584
58;419531.833;7443878.604;-23.111878611432882;-45.78582878115096
59;419671.08;7443900.287;-23.111689526220957;-45.78446789589771
60;419754.77;7443940.471;-23.111330626112114;-45.783648557044316
61;419848.028;7444016.194;-23.11065118000879;-45.78273393048224
62;419957.521;7444082.195;-23.110060327383092;-45.781661288742235
63;420042.837;7444100.008;-23.109903556301926;-45.78082725779863
64;420084.604;7444106.393;-23.109847901457155;-45.78041907513805
65;420137.762;7444104.842;-23.10986447707963;-45.779900075267165
66;420168.352;7444101.56;-23.109895597667574;-45.779601539092106
67;420211.861;7444080.674;-23.110086348453738;-45.77917776795277
68;420253.686;7444042.041;-23.11043731644856;-45.77877136427475
69;420270.616;7443981.514;-23.110984841315318;-45.77860919706316
70;420260.934;7443857.236;-23.112106913524435;-45.7787102158779
71;420225.45;7443796.377;-23.112654910838284;-45.77905989045598
72;420157.552;7443680.233;-23.113700703921438;-45.77972897845548
73;420146.281;7443649.056;-23.113981765499368;-45.779840668198716
74;420140.298;7443614.201;-23.114296303673722;-45.77990091204935
75;420142.007;7443596.834;-23.114453253169795;-45.77988512960667
76;420150.676;7443577.03;-23.114632550730416;-45.7798015084163
77;420161.393;7443559.474;-23.114791642075073;-45.7796977705433
78;420177.998;7443542.558;-23.114945236660944;-45.77953650132964
79;420199.147;7443528.049;-23.11507730910438;-45.77933073294042
80;420238.011;7443513.257;-23.115212791642634;-45.77895198736422
81;420275.156;7443507.728;-23.115264522614552;-45.778589544907064
82;420313.426;7443505.426;-23.115287159141104;-45.77821594817869
83;420340.872;7443508.173;-23.11526366866385;-45.777947787717146
84;420364.855;7443517.841;-23.115177497249945;-45.777713084269664
85;420382.076;7443525.749;-23.11510689724003;-45.77754450531748
86;420400.199;7443542.081;-23.114960250827668;-45.77736668009764
87;420421.393;7443572.492;-23.11468658361681;-45.77715813410045
88;420429.987;7443598.405;-23.114452938267544;-45.77707286440525
89;420460.476;7443846.123;-23.112216895540826;-45.776762258572475
90;420480.18;7443927.119;-23.111486247383123;-45.77656563995981
91;420524.821;7444041.015;-23.110459627857338;-45.776123807007025
92;420532.589;7444072.31;-23.11017732918345;-45.77604632838551
93;420538.622;7444100.763;-23.10992061747741;-45.775985939703546
94;420548.922;7444139.221;-23.109573740541443;-45.77588336529896
95;420556.371;7444171.31;-23.109284254579624;-45.775808961519694
96;420558.644;7444193.772;-23.109081475893273;-45.77578560036022
97;420556.985;7444226.046;-23.108789881648367;-45.775800125297046
98;420549.389;7444276.789;-23.10833118130135;-45.77587166514795
99;420544.767;7444307.392;-23.108054538071745;-45.77591520953917
100;420519.216;7444428.241;-23.106961743602838;-45.776158434478226
101;420488.643;7444473.341;-23.106552909745307;-45.77645462738755
102;420466.067;7444544.239;-23.105911439423465;-45.776671390826856
103;420467.724;7444584.395;-23.105548810273504;-45.776653124983326
104;420485.421;7444623.127;-23.105199813994382;-45.77647831002961
105;420527.232;7444648.92;-23.104968846888905;-45.77606870608189
106;420588.445;7444653.661;-23.10492896172063;-45.77547074436979
107;420665.668;7444632.768;-23.105121380744823;-45.774717781163176
108;420732.392;7444569.11;-23.10569956825927;-45.77406954777258
109;420820.946;7444491.76;-23.10640247066214;-45.77320885517321
110;420883.663;7444411.301;-23.107132215715396;-45.77260060444404
111;420944.005;7444244.652;-23.10864035622953;-45.77201998943918
112;420956.903;7444164.122;-23.109368359459584;-45.7718982012595
113;420957.767;7443910.439;-23.111659791735864;-45.771902864384884
114;420955.147;7443792.129;-23.112728301097995;-45.77193455892303
115;420972.242;7443660.778;-23.113915544844133;-45.77177440729886
116;421019.751;7443576.16;-23.11468212501781;-45.77131484040536
117;421072.841;7443539.193;-23.115018562803115;-45.77079831056604
118;421114.599;7443537.474;-23.11503608126856;-45.77039062132922
119;421167.707;7443529.519;-23.115110466189815;-45.76987241742112
120;421219.285;7443497.319;-23.11540376946262;-45.769370401944464
121;421254.597;7443450.63;-23.115827168886252;-45.76902797248856
122;421333.541;7443399.065;-23.1162966854231;-45.7682597095232
123;421402.738;7443374.882;-23.11651840737138;-45.76758521796225
124;421497.784;7443395.824;-23.11633376169057;-45.76665598330737
125;421572.561;7443444.902;-23.11589401116838;-45.76592324296403
126;421632.161;7443501.226;-23.115388088696715;-45.76533834430618
127;421653.065;7443573.747;-23.114734032374404;-45.76513049751498
128;421646.226;7443715.644;-23.1134520227902;-45.76519001702903
129;421601.552;7443820.136;-23.112506081778086;-45.76562091318795
130;421582.252;7443900.615;-23.111778239964885;-45.76580525606505
131;421583.844;7443939.268;-23.11142918183993;-45.765787729804885
132;421591.943;7443964.969;-23.111197421101046;-45.76570732636578
133;421607.904;7443992.455;-23.110949909749163;-45.76555005951141
134;421641.728;7444013.259;-23.110763599419474;-45.765218703782246
135;421733.549;7444018.219;-23.110723143615235;-45.7643218209764
136;421794.689;7444000.549;-23.1108856387834;-45.76372569368769
137;421868.756;7443964.976;-23.111210451277287;-45.76300424670716
138;421904.687;7443904.696;-23.111756627489576;-45.7626564559842
139;421937.628;7443784.421;-23.112844567663355;-45.76234092013289
140;421960.968;7443698.035;-23.11362595149032;-45.76211740706867
141;421990.269;7443651.705;-23.114045809673698;-45.76183363909965
142;422041.712;7443608.197;-23.114441221088462;-45.76133350360113
143;422091.521;7443600.164;-23.11451612552832;-45.76084751557198
144;422176.811;7443619.077;-23.11434930760789;-45.76001367560551
145;422221.83;7443665.854;-23.1139289104421;-45.759571676923834
146;422263.772;7443741.37;-23.113248781757488;-45.75915826868584
147;422299.276;7443848.148;-23.112285974778388;-45.758806145367785
148;422337.704;7443907.175;-23.111754616083314;-45.75842789724443
149;422390.9;7443938.038;-23.111478341133118;-45.75790687042401
150;422476.126;7443955.448;-23.11132507990402;-45.75707375357822
151;422556.646;7443947.438;-23.111401200880113;-45.75628787883549
152;422649.97;7443892.709;-23.111899907350285;-45.755379332534
153;422706.034;7443822.899;-23.112533088204774;-45.754835389029346
154;422735.647;7443729.257;-23.113380295557157;-45.75455094202336
155;422734.873;7443630.299;-23.11427410052403;-45.75456349641651
156;422722.085;7443552.967;-23.114972006793938;-45.75469227949424
157;422697.389;7443497.064;-23.115475798461826;-45.754936267222874
158;422696.195;7443450.017;-23.115900695974993;-45.75495030375009
159;422722.053;7443409.708;-23.116265996191277;-45.75469982669608
160;422759.014;7443369.461;-23.116631254461332;-45.754340919755364
161;422831.413;7443332.448;-23.11696895425155;-45.75363577996171
162;422944.017;7443300.182;-23.117265646818666;-45.75253777681976
163;422967.189;7443276.217;-23.11748319062395;-45.75231269795606
164;422972.255;7443226.716;-23.117930545814172;-45.75226571806318
165;422944.93;7443159.247;-23.118538688911425;-45.752535958674486
166;422907.86;7443136.066;-23.11874634469442;-45.75289913596073
167;422856.438;7443131.855;-23.11878198329553;-45.75340151354193
168;422775.549;7443142.758;-23.118679727267313;-45.75419089067375
169;422663.497;7443147.326;-23.11863323167446;-45.755284910716846
170;422614.967;7443134.981;-23.118742468504774;-45.75575945768437
171;422552.905;7443123.817;-23.11884040295601;-45.75636609332696
172;422537.301;7443110.945;-23.118955938891826;-45.756519127027914
173;422530.644;7443091.981;-23.119126919835473;-45.75658509674702
174;422523.911;7443042.203;-23.119576225232958;-45.75665336928202
175;422521.258;7443027.434;-23.119709502237612;-45.75668002543718
176;422507.748;7443010.61;-23.11986083244184;-45.75681281133178
177;422499.745;7442997.817;-23.11997601048524;-45.75689161385718
178;422494.303;7442965.476;-23.120267876150244;-45.756946397013856
179;422488.284;7442953.43;-23.120376399799053;-45.75700578693824
180;422476.149;7442941.94;-23.120479614691323;-45.75712487573971
181;422446.496;7442922.435;-23.120654403797772;-45.75741544650184
182;422435.177;7442910.264;-23.120763807773212;-45.75752660157001
183;422424.357;7442885.399;-23.120987893820818;-45.757633527444916
184;422416.269;7442872.004;-23.121108504988825;-45.75771319196456
185;422393.36;7442846.455;-23.12133820191924;-45.75793821127335
186;422387.38;7442837.011;-23.121423224374645;-45.757997089601865
187;422381.269;7442803.353;-23.12172695394764;-45.75805847595212
188;422377.282;7442789.954;-23.121847793478327;-45.75809809201844
189;422365.844;7442774.379;-23.121987938004306;-45.75821058352625
190;422355.698;7442767.638;-23.12204834987998;-45.75831000944776
191;422327.483;7442750.768;-23.122199403504986;-45.75858640808307
192;422315.379;7442737.978;-23.1223143608269;-45.75870526298969
193;422307.975;7442712.494;-23.122544197549267;-45.75877886345673
194;422301.258;7442700.331;-23.122653744422333;-45.758845078393065
195;422277.09;7442681.555;-23.122822203213538;-45.75908205330206
196;422266.968;7442665.311;-23.122968451577414;-45.759181728775175
197;422264.455;7442644.544;-23.123155911587936;-45.759207325791536
198;422272.054;7442580.897;-23.123731160892486;-45.75913634924307
199;422273.372;7442503.596;-23.124429444802082;-45.75912740604759
200;422265.984;7442426.392;-23.125126443267074;-45.75920348091595
201;422252.683;7442383.662;-23.12551177697643;-45.759335550933166
202;422260.282;7442320.015;-23.12608702618684;-45.759264574005485
203;422249.361;7442290.946;-23.12634907862272;-45.75937270733189
204;422213.903;7442250.296;-23.126714582282425;-45.75972106160498
205;422206.007;7442237.206;-23.126832446289548;-45.75979884088367
206;422178.091;7442165.12;-23.127482249679026;-45.76007514089523
207;422161.796;7442134.825;-23.12775512230467;-45.76023582298585
208;422149.009;7442057.493;-23.128453021690007;-45.76036464051965
209;422141.351;7442034.304;-23.128662115746145;-45.76044061124191
210;422145.132;7442009.683;-23.12888468299632;-45.76040493854488
211;422154.198;7441989.988;-23.129063004990254;-45.76031740003121
212;422188.808;7441943.383;-23.129485593947923;-45.75998175991583
213;422217.244;7441921.043;-23.12968871812011;-45.7597051808726
214;422264.725;7441914.156;-23.129753158175422;-45.75924181493919
215;422289.461;7441904.534;-23.129841231806846;-45.759000723396156
216;422329.953;7441863.069;-23.130217667371557;-45.7586073701768
217;422349.748;7441850.83;-23.13032914605288;-45.75841466604282
218;422383.665;7441837.922;-23.130447330327986;-45.75808407434139
219;422404.574;7441820.906;-23.130602008946177;-45.757880732080636
220;422431.918;7441751.421;-23.131230915713772;-45.75761720432344
221;422445.363;7441732.73;-23.131400373054436;-45.75748684230877
222;422493.42;7441684.34;-23.13183970980277;-45.75701994778187
223;422506.547;7441662.14;-23.132040846822655;-45.75689286805559
224;422510.332;7441628.816;-23.132342023425526;-45.756857590815464
225;422501.468;7441593.093;-23.13266427601517;-45.756945972391556
226;422499.926;7441569.347;-23.132878689546065;-45.75696223623524
227;422504.974;7441533.352;-23.133204051162455;-45.756914759161944
228;422526.108;7441489.731;-23.133599048655086;-45.75671056228889
229;422576.233;7441421.482;-23.134217856604053;-45.75622446611963
230;422580.773;7441407.083;-23.13434812827198;-45.75618085461804
231;422577.211;7441371.385;-23.13467040371842;-45.756217451646584
232;422587.554;7441344.217;-23.134916283206735;-45.7561178103458
233;422584.695;7441304.134;-23.135278199094593;-45.75614776347135
234;422578.531;7441285.482;-23.135446384597316;-45.75620891052388
235;422574.591;7441253.076;-23.13573890728067;-45.75624903309474
236;422586.724;7441200.84;-23.136211297360568;-45.75613317814791
237;422586.702;7441180.532;-23.136394728361747;-45.75613442157121
238;422580.851;7441157.085;-23.136606239335713;-45.75619275500872
239;422563.007;7441111.847;-23.137014015592115;-45.75636932678967
240;422543.499;7441082.077;-23.137281998919544;-45.756561367918536
241;422535.841;7441067.391;-23.137414291264324;-45.7566369072308
242;422504.74;7441045.651;-23.137609199683197;-45.75694177038764
243;422484.792;7441017.571;-23.13786189668245;-45.75713802525952
244;422440.636;7440912.891;-23.138805346616497;-45.75757460695278
245;422420.677;7440881.009;-23.13909238374002;-45.75777116523949
246;422400.038;7440865.317;-23.13923315257939;-45.75797354387163
247;422368.553;7440851.372;-23.139357631885858;-45.7582817676461
248;422351.058;7440833.853;-23.139515050142013;-45.75845353238443
249;422337.734;7440800.627;-23.1398145375825;-45.75858535728842
250;422313.152;7440756.931;-23.14020806582412;-45.75882767314956
251;422301.797;7440716.548;-23.140572291005544;-45.75894063201746
252;422289.838;7440689.056;-23.140820049842624;-45.75905883532201
253;422247.332;7440612.026;-23.141513822849852;-45.759477917628686
254;422206.878;7440515.836;-23.1423807536218;-45.759877937412234
255;422173.32;7440411.406;-23.143322435673863;-45.760211026701796
256;422170.303;7440335.504;-23.144007877155587;-45.76024436127386
257;422164.655;7440282.15;-23.144489530184387;-45.760302245654785
258;422168.09;7440263.724;-23.144656124546252;-45.7602696332789
259;422167.965;7440235.009;-23.14491548639735;-45.76027231711266
260;422163.683;7440204.396;-23.145191796036052;-45.76031570104619
261;422151.598;7440156.793;-23.14562119982099;-45.76043616669038
262;422153.877;7440127.935;-23.145881966559546;-45.760415377088925
263;422181.322;7440083.963;-23.146280435903023;-45.760149547433755
264;422192.381;7440056.112;-23.14653252046485;-45.760042946665436
265;422191.975;7440009.584;-23.146952764613204;-45.760049282225125
266;422169.849;7439946.539;-23.14752117496705;-45.760268612346785
267;422163.423;7439917.776;-23.147780673380133;-45.76033284486905
268;422157.067;7439860.504;-23.14829768198148;-45.760397846802825
269;422160.579;7439830.274;-23.148570899306076;-45.76036508320143
270;422170.616;7439790.594;-23.14892978100465;-45.76026906653922
271;422207.467;7439716.732;-23.149598673925563;-45.759912877442034
272;422210.94;7439688.202;-23.149856534090258;-45.75988040698007
273;422208.349;7439628.217;-23.150398225210406;-45.759908770674
274;422215.536;7439603.376;-23.150622939467866;-45.759839834312444
275;422230.319;7439578.814;-23.150845491333357;-45.75969668669172
276;422239.142;7439505.692;-23.151506379533387;-45.759614227833964
277;422264.67;7439441.167;-23.152090401854757;-45.75936815657195
278;422270.333;7439417.291;-23.15230632780547;-45.75931405582059
279;422258.537;7439314.873;-23.153230860612645;-45.759434493012655
280;422263.231;7439289.673;-23.153458699946267;-45.75938992463013
281;422281.686;7439232.384;-23.153977030038995;-45.75921257066536
282;422290.229;7439179.664;-23.154453624129946;-45.75913180474397
283;422308.283;7439113.863;-23.15504881947746;-45.7589587987414
284;422319.466;7439093.518;-23.155233111284982;-45.75885059615725
285;422329.407;7439083.447;-23.15532454496517;-45.75875400276836
286;422358.368;7439064.321;-23.155498662092032;-45.75847207823866
287;422406.711;7439016.539;-23.15593252424736;-45.75800228134205
288;422426.929;7438982.1;-23.156244543629516;-45.75780653654514
289;422450.679;7438920.835;-23.156799033840393;-45.757577651823915
290;422513.232;7438860.081;-23.157350729678452;-45.75696969768237
291;422540.863;7438816.714;-23.15774373758152;-45.75670198846096
292;422547.34;7438796.558;-23.15792610001525;-45.75663974120382
293;422543.243;7438749.543;-23.158350569618612;-45.75668214778262
294;422537.028;7438724.587;-23.15857569245722;-45.7567441249286
295;422517.6;7438699.921;-23.15879757577952;-45.75693515830372
296;422513.369;7438688.417;-23.158901286778715;-45.75697707261331
297;422486.511;7438669.178;-23.159073801723;-45.75724041113617
298;422441.325;7438650.808;-23.15923760605035;-45.757682743166846
299;422427.97;7438635.888;-23.159371743056553;-45.757813959598586
300;422418.101;7438613.147;-23.159576686722932;-45.75791152074476
301;422410.038;7438551.933;-23.160129221419478;-45.75799339581107
302;422374.279;7438451.752;-23.161032422085075;-45.75834780443233
303;422368.777;7438447.521;-23.16107037972137;-45.75840176658924
304;422330.952;7438439.429;-23.161141691196832;-45.75877167662456
305;422318.088;7438433.424;-23.161195325851203;-45.75889764590443
